energy,IBD
1.806,0
1.8065,1.364274777331496556943644190617763191128396008904e-45
1.807,1.7066528488307358151907971350372714702281909108827e-45
1.8075,2.0048580125706117409040177393242913067548227574792e-45
1.808,2.2718697365474346231517551582828176825345110001104e-45
1.8085,2.5155429171060752186261341106528775849427889744804e-45
1.809,2.741011117793352158950801727967524860841457213998e-45
1.8095,2.951825329214589045838804520703819582062213514042e-45
1.81,3.1505513789820941826564204941727204167789180612597e-45
1.8105,3.3391084578879189817617977013547357316286971907099e-45
1.811,3.518972923331291803508081697583291024779463059323e-45
1.8115,3.6913071434367697480866669750781234944813940831987e-45
1.812,3.8570443045117126123031106998711197603557097204504e-45
1.8125,4.0169461549308598075501316551180556207511051243277e-45
1.813,4.1716434717498174240646846999784463176155038119435e-45
1.8135,4.3216651328382384875747072459336812321343517430639e-45
1.814,4.4674594597025293097335871018542818582008448325026e-45
1.8145,4.6094101866115914579206393657792748859468381918592e-45
1.815,4.7478486118101756277411426926010522045338485158708e-45
1.8155,4.8830629834045795347382369469015297066091092548677e-45
1.816,5.0153058475077332410160604599584737577569302933042e-45
1.8165,5.1447998713431254773408040600823380226506338928658e-45
1.817,5.2717425089058896468600260455922643579959729041702e-45
1.8175,5.3963097769145297576300141238717562024067261942016e-45
1.818,5.5186593388644143643159515614452834702039758371117e-45
1.8185,5.638933045254021233536653518676352492381976251211e-45
1.819,5.7572590421627511448610815930962159588308068422332e-45
1.8195,5.8737535341089825305751076346568043235489914479135e-45
1.82,5.9885222676882860924641373462477744376706135016726e-45
1.8205,6.1016617879426869943689568711819248635611009330602e-45
1.821,6.213260508406855439255620754481390293508857210896e-45
1.8215,6.3233996273662340204967067318665545065464070149981e-45
1.822,6.4321539163805807658009553991538218400269969313829e-45
1.8225,6.5395924020835796862602969635077011203551236962312e-45
1.823,6.6457789583189668484270811290895726829958438266806e-45
1.8235,6.7507728225512584295293174425854468804854910102512e-45
1.824,6.8546290480090706585048280996007673182610776847076e-45
1.8245,6.9573989010307246863228921855399281036576077679413e-45
1.825,7.0591302114823697282764418904616663658856826975625e-45
1.8255,7.1598676828198939085146195033424794802883693292501e-45
1.826,7.2596531673102649318498911054225066573110197967342e-45
1.8265,7.3585259110603867302516667965671654179004584717673e-45
1.827,7.4565227727894400178159068840871145991913720121592e-45
1.8275,7.5536784196887930568721905455167176574643460702825e-45
1.828,7.6500255032244859991767711954940815523324826241156e-45
1.8285,7.7455948173264004525118794343480856122078208539817e-45
1.829,7.8404154410659868863095826574828321574561462482215e-45
1.8295,7.9345148676337988089626638681049185519864644913224e-45
1.83,8.0279191211853722090356801366546146330521261266832e-45
1.8305,8.120652862915676531737600838486543655554408486219e-45
1.831,8.2127394875472816890239355667193840561422207028259e-45
1.8315,8.3042012112654074109007545876823126440976219696833e-45
1.832,8.3950591520056173977535496689090169869619403153883e-45
1.8325,8.4853334028880202994172134994260081492859833145244e-45
1.833,8.5750430994975429070536591557343949748095924089904e-45
1.8335,8.664206481625914626801534875657129285272263138428e-45
1.834,8.7528409500209860303775393253066776381840897381576e-45
1.8345,8.8409631186257851598349020598721279291344534870666e-45
1.835,8.9285888627367341736540454208466244148320901818692e-45
1.8355,9.0157333634617996145617027661555049398144591275432e-45
1.836,9.1024111488194249047950261577061670655981807892331e-45
1.8365,9.1886361317817288629197597368379968623295049205693e-45
1.837,9.2744216455346492992083440836318330460105174029592e-45
1.8375,9.3597804761982273497751245293034630885551553588467e-45
1.838,9.4447248932268053691232370907931152707528109462615e-45
1.8385,9.5292666776858902847081816983503288820089109743579e-45
1.839,9.613417148584040227227286615427391892012349421723e-45
1.8395,9.6971871874194955819332394124895669755624867149787e-45
1.84,9.7805872610872605370673354259046805955648147185828e-45
1.8405,9.8636274432775878087589655519267823477368550648307e-45
1.841,9.9463174344856277506711983514600835742598290957691e-45
1.8415,1.0028666580739729315911318225462286641875041725917e-44
1.842,1.0110683891147413761338161623556694335745576741373e-44
1.8425,1.0192378054348217076820057346446667104077611818992e-44
1.843,1.0273757453955721273762293281556971184287606176129e-44
1.8435,1.0354830183062674436284719319516106310833259595694e-44
1.844,1.0435604057878004265339153534459647077866476164063e-44
1.8445,1.0516086630557732458684473560208591201092291307048e-44
1.845,1.0596285201287581086033376484924758206342452954895e-44
1.8455,1.0676206829669043267001784207476712098732860664022e-44
1.846,1.0755858345457698463163621944940028966733475140784e-44
1.8465,1.0835246358697665929655085087254007116700162380194e-44
1.847,1.091437726929355424362612259363351987413955388157e-44
1.8475,1.0993257276056781591267284805709723585028286234424e-44
1.848,1.1071892385261492443223086479037178992283534829115e-44
1.8485,1.1150288418741645083527138348945863514190452008809e-44
1.849,1.12284510215593945556766741690926516538975184257e-44
1.8495,1.13063856692714177510957656069743760252232296825e-44
1.85,1.1384097674819053713135825533022797941154616787724e-44
1.8505,1.1461592195065298175807505818854942981248385172953e-44
1.851,1.1538874237000956898983618209449056451391613397152e-44
1.8515,1.1615948663639457202545025986708882991247538485457e-44
1.852,1.1692820199619624607534699983869871863520236241675e-44
1.8525,1.1769493436533449026597674561180599904033696710053e-44
1.853,1.1845972837995610309925805090029352513099327612551e-44
1.8535,1.1922262744469187006135852996150780581961355803255e-44
1.854,1.1998367377862171795426114378899893216663014136648e-44
1.8545,1.2074290845907514108856562833083722458551918503099e-44
1.855,1.2150037146339482687834246024245627421222546373758e-44
1.8555,1.2225610170877114331448498757042772226684506990698e-44
1.856,1.230101370902598298128565188291695955094046792974e-44
1.8565,1.2376251451707886182609473299739285745926063919532e-44
1.857,1.2451326994728343992431704544576422118330109516044e-44
1.8575,1.2526243842090005084591243322402496639470027600952e-44
1.858,1.2601005409160708568697523064687578549806690325734e-44
1.8585,1.2675615025703502283384984148903079044655978111093e-44
1.859,1.2750075938776374234491642386533638725704517931254e-44
1.8595,1.2824391315507816401060069892647376606841067174031e-44
1.86,1.2898564245755124009336513270151892558704323846811e-44
1.8605,1.2972597744651022660930151568422009945686063735517e-44
1.861,1.304649475504478317888458745786281529494572628259e-44
1.8615,1.312025814984246576806353917889176387345580821387e-44
1.862,1.3193890734251810838444991351141814615722501872962e-44
1.8625,1.3267395247936083824095422191537546982912987773528e-44
1.863,1.3340774367081828365094841088631005021610785239877e-44
1.8635,1.3414030706384052514508858560579326162797418591828e-44
1.864,1.3487166820953313706881199856667659913807249562383e-44
1.8645,1.3560185208148033283540692908839963660515131831338e-44
1.865,1.3633088309336075562593249290813964200593502291444e-44
1.8655,1.3705878511588263528155799960876555089529302209473e-44
1.866,1.3778558149307490961797083593635295607713047981641e-44
1.8665,1.3851129505796012654925780087418445589501304641679e-44
1.867,1.3923594814764239843804807967102992057849490807793e-44
1.8675,1.3995956261783056192272321826662261192105589962038e-44
1.868,1.4068215985682690841398253485674268077039900562063e-44
1.8685,1.4140376079900150348975850706929763583298934585612e-44
1.869,1.421243859377798683044818785250981004962851483854e-44
1.8695,1.4284405533815907426319388009055115349980140625411e-44
1.87,1.4356278864877775394764949860952474568715597258498e-44
1.8705,1.4428060511355552185399058048888378550172038957747e-44
1.871,1.449975235829252716042195186956417087172241805388e-44
1.8715,1.4571356252466940587299451698018685706243664061363e-44
1.872,1.4642874003438167855115617254060170477699582054673e-44
1.8725,1.4714307384556658448742845445749482804227974424372e-44
1.873,1.4785658133939636415344185460837100922439388043126e-44
1.8735,1.4856927955413352801902898370888157043694201606297e-44
1.874,1.4928118519423755073030862743839667239438416520706e-44
1.8745,1.4999231463916485193066122468964446440788949829653e-44
1.875,1.507026839518794280901526575721302391858994686006e-44
1.8755,1.5141230888707953678798514016245694216464310691269e-44
1.876,1.5212120489915635146968278193426455229522413069977e-44
1.8765,1.5282938714989365831289782586273000799305890044435e-44
1.877,1.5353687051591718768709178868062184143539226516126e-44
1.8775,1.5424366959590799298643309237714445464938529642774e-44
1.878,1.5494979871758284118272133685078159426643460572793e-44
1.8785,1.5565527194445548181973079746887080519005903966001e-44
1.879,1.5636010308238346583514651327721175004142957777696e-44
1.8795,1.5706430568591358890433364050717812024673415085074e-44
1.88,1.5776789306442739730697033092055708989288028614383e-44
1.8805,1.5847087828809913289336480419516031294854814007181e-44
1.881,1.5917327419366940632804473050567545082031596525953e-44
1.8815,1.5987509339004633011560472402597402249020403134342e-44
1.882,1.6057634826373431263169736369258065601607341188263e-44
1.8825,1.6127705098410167605385972953700920229934981186991e-44
1.883,1.6197721350848926333722771304602761443417404951944e-44
1.8835,1.6267684758717066872459368992528323702663462522452e-44
1.884,1.633759647681632854296822575295114815932432622067e-44
1.8845,1.6407457640190033934129109720547458706935185915262e-44
1.885,1.6477269364576515493135470731648190077266959257738e-44
1.8855,1.6547032746849738702124579684315806706945258942955e-44
1.886,1.6616748865446958695541823752911563616219452601568e-44
1.8865,1.6686418780784345355428274531312038710906958642821e-44
1.887,1.6756043535660625991475473442841723548838721510451e-44
1.8875,1.6825624155649644616317450271532926856036299854883e-44
1.888,1.6895161649481606775075932094036712270259085773881e-44
1.8885,1.6964657009413877236435296519898986554813400224073e-44
1.889,1.7034111211591317304626651173661083907368254537989e-44
1.8895,1.7103525216396999090707010175015186520939666121704e-44
1.89,1.7172899968793009570012134338384350789133849677375e-44
1.8905,1.7242236398652155419080911008611232182855139858372e-44
1.891,1.7311535421080503676108366124236020855548799203885e-44
1.8915,1.7380797936731544174452422587605150294560464018991e-44
1.892,1.7450024832111639961699060377336057856247888750258e-44
1.8925,1.751921697987752966451773634745517015696437467981e-44
1.893,1.7588375239125773758216078316304924206740439543958e-44
1.8935,1.7657500455674887683100762921080037607231025989108e-44
1.894,1.7726593462339789143071679526726061660154088008548e-44
1.8945,1.7795655079199284097652543640763062899960018966333e-44
1.895,1.7864686113856447359600557332966265091806796923038e-44
1.8955,1.7933687361692604598568947363142984763023904421696e-44
1.896,1.800265960611451052741974298937157605840918529149e-44
1.8965,1.8071603618795414561360929923635276268201461902802e-44
1.897,1.8140520159909839581302766105310209721395403263318e-44
1.8975,1.8209409978362750111659692944234668569343737469415e-44
1.898,1.8278273812012677311810446127793533123663023561404e-44
1.8985,1.8347112387889463989023502959125565402118980321277e-44
1.899,1.8415926422406429727344227627160803238000762388285e-44
1.8995,1.848471662156760662580479794091938293929212108866e-44
1.9,1.8553483681169589934081231669940403056721737115647e-44
1.9005,1.8622228286998642970222572523450460881808855669886e-44
1.901,1.8690951115022834796773000801246491626802411107548e-44
1.9015,1.875965283157983921367806916725524995773578780914e-44
1.902,1.8828334093559919771162250000129148166373774604694e-44
1.9025,1.889699554858471990975008182740858038458250964601e-44
1.903,1.8965637835181618335170404634862830956368677269024e-44
1.9035,1.9034261582954259489909297898339677121526161405637e-44
1.904,1.9102867412748767164545384938255530307189441591396e-44
1.9045,1.9171455936816243042875989710271704002828215563587e-44
1.905,1.924002775897129462458150090456889534587777110748e-44
1.9055,1.9308583474747186403285705732594240201561468531383e-44
1.906,1.9377123671547108117457101357593643525400298820985e-44
1.9065,1.9445648928792147043336051637565247271117221854255e-44
1.907,1.9514159818065695368462957509485325624433235959655e-44
1.9075,1.9582656903254872821303670878786013092245527317816e-44
1.908,1.965114074068844618130521214961068673161059994176e-44
1.9085,1.9719611879271819910829423101778727805306477579981e-44
1.909,1.9788070860618817435122003530825663959617942176923e-44
1.9095,1.985651821918082146983317270293936471786657165748e-44
1.91,1.992495448237274452950804320444510076680619991377e-44
1.9105,1.9993380170696392904896335288451647921780300965592e-44
1.911,2.0061795797860933713808315293725555390261334348133e-44
1.9115,2.0130201870901023281703210698503389077766511652538e-44
1.912,2.0198598890292058924045136620626224453261155255844e-44
1.9125,2.0266987350063107971199793801925244525692678427629e-44
1.913,2.033536773790721506047774963129646152089608871185e-44
1.9135,2.0403740535289637196965320083585371730419071932602e-44
1.914,2.0472106217553460797500845857356440221523299935502e-44
1.9145,2.0540465254023146395403104063249788927978612272597e-44
1.915,2.0608818108105694584438909396691240478806318942855e-44
1.9155,2.0677165237389975134688904096701410576469392332315e-44
1.916,2.0745507093743666653034534234262603044591853723112e-44
1.9165,2.0813844123408345400760642375827547835316847020293e-44
1.917,2.0882176767092410361936231132770636604004868753569e-44
1.9175,2.0950505460062379941850100176362471539261399414381e-44
1.918,2.1018830632232001686180169365504329812241533122324e-44
1.9185,2.1087152708249707510612639481169791364582121986568e-44
1.919,2.1155472107584095866694231200592476129519065556764e-44
1.9195,2.1223789244607970542766567798305361198481752883009e-44
1.92,2.1292104528680372237375479814759483219049159843705e-44
1.9205,2.1360418364227130083507035977871677942404098899875e-44
1.921,2.1428731150819609577478360403063398309095992305504e-44
1.9215,2.1497043283252181683736559596862286853598723217342e-44
1.922,2.1565355151617844618700900862260198050640104446463e-44
1.9225,2.163366714138252088161278174977523175011919561788e-44
1.923,2.1701979633457701608425522353046823609738643730493e-44
1.9235,2.1770293004271958743734987320871918237528550061326e-44
1.924,2.1838607625840752426367942398677344512370554632036e-44
1.9245,2.1906923865835052153722731004451093017139005765704e-44
1.925,2.1975242087648439931440362772679419695397158754467e-44
1.9255,2.2043562650463212192480188493664074207641329135772e-44
1.926,2.2111885909314904222610081574044645056237801863023e-44
1.9265,2.218021221515575218271200658484522538097082257422e-44
1.927,2.2248541914916757500802684738101792069691240746454e-44
1.9275,2.2316875351568867199110913742262928206641031828151e-44
1.928,2.2385212864182690617724944641878629715561715057056e-44
1.9285,2.2453554787987264611132358884927641237966512935588e-44
1.929,2.2521901454427528931126258495687081427108423984232e-44
1.9295,2.2590253191221022572518623977645000851606233040327e-44
1.93,2.2658610322413218595020711723477590478547221357288e-44
1.9305,2.2726973168432006886448807916353923469062191121503e-44
1.931,2.2795342046140983843264133535753009558595232300633e-44
1.9315,2.2863717268892057332484045398864219876147372626169e-44
1.932,2.293209914657678178014031734867043409029042338312e-44
1.9325,2.300048798567693059377037056330219775018229158645e-44
1.933,2.3068884089313962434893485251638952111832128325438e-44
1.9335,2.3137287757297887623857871044982144309054346022333e-44
1.934,2.3205699286174947093688073590659559603994275442161e-44
1.9345,2.3274118969274609153786289976425883753849131931816e-44
1.935,2.334254709675553835874429461637194583872327481465e-44
1.9355,2.3410983955651040974409346865069593952226850797837e-44
1.936,2.3479429829913397234516728891735411316024539268604e-44
1.9365,2.3547885000457583976586145046375837237223317924651e-44
1.937,2.3616349745204039938441721109613397227471053185817e-44
1.9375,2.3684824339120976674734742630093206024260776654965e-44
1.938,2.3753309054265643239281412716203679206805617334888e-44
1.9385,2.3821804159825016372370356090884331126299281079249e-44
1.939,2.3890309922155779581359991565455305682650321177265e-44
1.9395,2.3958826604823453943355624952922624844012511831241e-44
1.94,2.402735446864115158884375830427917663317248799785e-44
1.9405,2.4095893771707357661935792254749916196083062604472e-44
1.941,2.4164444769443241430356309593224554582831154824868e-44
1.9415,2.4233007714629144913017370922311607042231325001783e-44
1.942,2.4301582857440749331543013343417549148336388414763e-44
1.9425,2.4370170445484323442781115520261751597172458060753e-44
1.943,2.4438770723831553448164803158371897445300857025303e-44
1.9435,2.4507383935053601332464540124897022519346830368733e-44
1.944,2.4576010319254891059002132502328379457754634642771e-44
1.9445,2.4644650114106025045969417918270767219042458021984e-44
1.945,2.4713303554876329808858498079081274949904781183959e-44
1.9455,2.4781970874465676218547190762849056145001576863329e-44
1.946,2.4850652303436073079727638365506837656943221285625e-44
1.9465,2.4919348070042434912747459313579142976097190178782e-44
1.947,2.4988058400263022162004554548749603009879748231616e-44
1.9475,2.5056783517829197974883194125632368679085360068054e-44
1.948,2.5125523644254999674173123930929528059447437236031e-44
1.9485,2.5194278998865924343010794529971751117745142302001e-44
1.949,2.5263049798827426217355713538732229681870917087791e-44
1.9495,2.5331836259172768809004630485661962559164029484409e-44
1.95,2.540063859283072942672007775300294488244769197373e-44
1.9505,2.5469457010652554116561730370788110504622492217441e-44
1.951,2.5538291721438660308663920531551618441149167111677e-44
1.9515,2.5607142931964728945884714938963982847977271884642e-44
1.952,2.5676010847007683420399960904812803649285707909583e-44
1.9525,2.5744895669370951997550992175503393401362929872933e-44
1.953,2.5813797599909510715014304618617374167796484741344e-44
1.9535,2.5882716837554347448851352582145432560056083777667e-44
1.954,2.5951653579336844233852091547840359515933090018341e-44
1.9545,2.6020608020412473223297850587474384101135887469496e-44
1.955,2.6089580354084303075264232464489152724979913937952e-44
1.9555,2.6158570771825955428428952587522197390580526082963e-44
1.956,2.6227579463304508409261339185802080173786457496058e-44
1.9565,2.6296606616402741301706103132636674218229701890051e-44
1.957,2.6365652417241217054604764980683402830242605677788e-44
1.9575,2.6434717050199841309152072591670422240093681180884e-44
1.958,2.6503800697939394827255764117712899155264529543552e-44
1.9585,2.6572903541422432231631536766875090623793947795451e-44
1.959,2.6642025759934043701963334266778707892256380167823e-44
1.9595,2.6711167531102117370275462000352249544440072182554e-44
1.96,2.6780329030917599312289599085090137541102052402656e-44
1.9605,2.6849510433754142853465154149955365770977424358688e-44
1.961,2.6918711912387643876912069856986146212645125870928e-44
1.9615,2.6987933638015298973092439274701964268220200481989e-44
1.962,2.7057175780274683414139059175699605066779070796611e-44
1.9625,2.7126438507262239502655543935340956247417544110436e-44
1.963,2.7195721985551672092424112102148509360338109624033e-44
1.9635,2.7265026380211887248736328103269632425233100154521e-44
1.964,2.7334351854824971181361927939783142341126000860166e-44
1.9645,2.7403698571503598850276347251760559228021017621447e-44
1.965,2.7473066690908369213490770883472404176606085474138e-44
1.9655,2.7542456372264702239247881333470674826272417047248e-44
1.966,2.7611867773379795024550074675571586564374426916958e-44
