energy,IBD
1.806,0
1.8065,1.0394348535130417116810622414667159656285832498925e-45
1.807,1.5268644223143011343455908510317438697310396841379e-45
1.8075,1.894265223852850764455740711140010438323883388125e-45
1.808,2.2025476321365073708860030582222753982211274354146e-45
1.8085,2.4739148959736850413186815025315396333246435282917e-45
1.809,2.7194431822218555861282991581301987883815781427647e-45
1.8095,2.945603329099047775651654798362999477684565886074e-45
1.81,3.1565633453199182689502816326236593477340924495656e-45
1.8105,3.3551936998707353267498274063154172620249198847943e-45
1.811,3.5435703489468820477574687435748853146088999918794e-45
1.8115,3.7232518505553928233956370485441242936810166353845e-45
1.812,3.8954434122187378255274531336038342054670126543008e-45
1.8125,4.0610996018891620292848851804459523307747592692309e-45
1.813,4.2209916139399304613232857221727492850160450411268e-45
1.8135,4.375752980083696869475832790505399611876395975456e-45
1.814,4.5259116078818892613539457965238458150207230332633e-45
1.8145,4.6719128341261498084419107862207996703203936902552e-45
1.815,4.8141363922917277717109348799787133011018287046598e-45
1.8155,4.9529091487936153191393101980043662898716404402081e-45
1.816,5.0885148297690464406966581877668834081152266854931e-45
1.8165,5.2212015639824286688739117753231380124596992723907e-45
1.817,5.3511878124992286171821070852272059180805318419313e-45
1.8175,5.4786670875531407084366560919655782319382502214717e-45
1.818,5.6038117495522143176100477082848059357947326954266e-45
1.8185,5.7267760930765893341694776740703326990692365800073e-45
1.819,5.8476988780107111173757747251361985298682851971202e-45
1.8195,5.966705422990534806670468607311030291609874623623e-45
1.82,6.0839093501894860273290566176620446105969862486294e-45
1.8205,6.1994140498352360768871089742700740011785157598436e-45
1.821,6.3133139175465314458023063490528822604159211704479e-45
1.8215,6.4256954060926605315299830360076150338267040159907e-45
1.822,6.5366379244692434611019554812650579862675357673387e-45
1.8225,6.6462146105102032354863014696933383286137722362463e-45
1.823,6.7544929980989685659983640314790428901218038349474e-45
1.8235,6.8615355960181983895023673697518837122913017223553e-45
1.824,6.9674003923177966242961367963246859077803427756117e-45
1.8245,7.0721412955760898731234337644380370821032533057388e-45
1.825,7.1758085224337042092443199277968665676349037954083e-45
1.8255,7.2784489391749503717944777367461699951482671032309e-45
1.826,7.3801063638381353787551860572295539979225084904694e-45
1.8265,7.4808218342824207137765017584031305467915448717297e-45
1.827,7.5806338467799841688165995811721019877554831771646e-45
1.8275,7.6795785689939441392223216400860428492950261224182e-45
1.828,7.7776900306206193896857734598409432192775113660992e-45
1.8285,7.8750002944893255426882127539245412010856658340919e-45
1.829,7.9715396105106575730989524109260616288246459560151e-45
1.8295,8.0673365545249041427902660778555970673860895670426e-45
1.83,8.1624181538199404191569216547045975090372839484864e-45
1.8305,8.2568100008472029274597840821271529606510794654866e-45
1.831,8.3505363564626592091319666816595515511729483617446e-45
1.8315,8.443620243845705662389093175664101356112452942331e-45
1.832,8.5360835341033435234797976477184954485165992805445e-45
1.8325,8.6279470244399184495711887157209779679699049482446e-45
1.833,8.7192305096657896611271806810423861277983760271282e-45
1.8335,8.8099528477237489867364060385588825636235051439051e-45
1.834,8.9001320198331122819436620463921912906783806855331e-45
1.8345,8.9897851857806523927098877816918788025992375175085e-45
1.835,9.0789287348282213373567017649741043937947344627285e-45
1.8355,9.1675783326528360213919244846203779211961875363607e-45
1.836,9.2557489646905041036646010083389105096814340704358e-45
1.8365,9.3434549762137563229409693121383022831676396061153e-45
1.837,9.4307101094387030001562273844702368671132094588092e-45
1.8375,9.5175275379250376743789287567938629970679559843553e-45
1.838,9.6039198985065258297840163787268904847037209653726e-45
1.8385,9.68989932096433152105063280068575495229060117568e-45
1.839,9.7754774556353020588630967919880689467541150022893e-45
1.8395,9.860665499127060729142787466062990041282084400825e-45
1.84,9.9454742182963656548341820251873711249977606978991e-45
1.8405,1.002991397263120189001671648240204472874771038994e-44
1.841,1.0113994735164834966170970062860819858209979320125e-44
1.8415,1.0197726112036825929626804338066602250307956872062e-44
1.842,1.0281117360806746743315588504954857830160186380692e-44
1.8425,1.0364177407615774740854892148849820531598844045588e-44
1.843,1.0446914863283854265064995641905422008124377901741e-44
1.8435,1.0529338038421114152055488360314478191090556286182e-44
1.844,1.061145495762666415449439809158931917356928982946e-44
1.8445,1.0693273372840643239526907974617257474367021316803e-44
1.845,1.0774800775910806936933460001264876669064866899731e-44
1.8455,1.0856044410428557444792797206119304774331894398321e-44
1.846,1.0937011282886044421343103504647230410852858591366e-44
1.8465,1.1017708173200789029177913720202474304443079783017e-44
1.847,1.1098141644651521897486408313038298185357709328887e-44
1.8475,1.1178318053264204476392442054136123065151072408808e-44
1.848,1.1258243556685381067626807787471817057071543119554e-44
1.8485,1.1337924122576167325652428204403966972698242771102e-44
1.849,1.1417365536558591013674890749672392738180677731546e-44
1.8495,1.1496573409742361896525560938464335465233090951061e-44
1.85,1.1575553185859268226260279631261961203896365951546e-44
1.8505,1.1654310148029433321466839833269304899194904688378e-44
1.851,1.1732849425182844308247636270388303740275870588766e-44
1.8515,1.1811175998156646766472590728396441298355338716974e-44
1.852,1.1889294705488442756479215938908585915235981264889e-44
1.8525,1.1967210248923455412159037030939854666037183352504e-44
1.853,1.2044927198653115191934867194956187966792055144596e-44
1.8535,1.2122449998300194321952375096273442039541946669912e-44
1.854,1.219978296966577854067303884484371084383187128436e-44
1.8545,1.2276930317251395031239264700184878434634424423866e-44
1.855,1.2353896132569655790662381243777299514615809936134e-44
1.8555,1.2430684398254686492506926895199027190087066648031e-44
1.856,1.2507298991984059146050268524656439915648497863082e-44
1.8565,1.2583743690222258621221942811497378909001493689753e-44
1.857,1.2660022171795993416517900690199852611703310573646e-44
1.8575,1.2736138021309811303307545966017916557646729682565e-44
1.858,1.2812094732411126060448872086127892834009908633638e-44
1.8585,1.2887895710912273479646631037817080665104643872455e-44
1.859,1.2963544277777662446044445706727444630620407063411e-44
1.8595,1.3039043671982409028465114121943879721020851910666e-44
1.86,1.3114397053249624894618296734736378529752440180462e-44
1.8605,1.3189607504672187792288441592055616108438328452761e-44
1.861,1.3264678035225387415527277476537732164768113092982e-44
1.8615,1.3339611582175287507664796199227900272820500605777e-44
1.862,1.3414411013388525533267855691570941170172608786056e-44
1.8625,1.3489079129548033536800704803135280987003698693853e-44
1.863,1.3563618666279813319265659246676298743032752359346e-44
1.8635,1.3638032296194439537550928169758484133237679075644e-44
1.864,1.3712322630847913723770213751917635423361636425403e-44
1.8645,1.3786492222625333235429118232448951451298768940627e-44
1.865,1.3860543566551548855143564875335983208705015632559e-44
1.8655,1.3934479102031595158074888810540498466662387280515e-44
1.866,1.4008301214524676322122356601298555445452801173512e-44
1.8665,1.40820122371543904543986984026992843152951305918e-44
1.867,1.4155614452258628651687403973641442248333871197423e-44
1.8675,1.4229110092881248789902711794722147067716444272552e-44
1.868,1.4302501344208657780369054869322460881282249943849e-44
1.8685,1.4375790344953381837625833854708842958893294369628e-44
1.869,1.4448979188687488933691658339816577315574777984349e-44
1.8695,1.4522069925127432708835214872069773628801168631285e-44
1.87,1.4595064561372946053418672506952311311648455206898e-44
1.8705,1.4667965063101593561179777672743288647951691716939e-44
1.871,1.4740773355721399571229675039971882768334372609884e-44
1.8715,1.4813491325482706024634541283772536790057478328538e-44
1.872,1.4886120820551491320803101426249574101279738390474e-44
1.8725,1.4958663652045389943485165565853893689811798601326e-44
1.873,1.5031121595034476792270007217416678723784261649871e-44
1.8735,1.5103496389507643419794260653310589756188749798839e-44
1.874,1.5175789741306483142186324263055522082477111786706e-44
1.8745,1.5248003323027632489123058543562557188684106639263e-44
1.875,1.5320138774895352719804755365921753450070646784195e-44
1.8755,1.5392197705604919111610384876958518011517254030795e-44
1.876,1.5464181693138452560961324545887759980890931899338e-44
1.8765,1.5536092285554131743393678968473949344692934720332e-44
1.877,1.5607931001749674462696586310295050172414489307511e-44
1.8775,1.5679699332201566905081019951750821406007548012978e-44
1.878,1.5751398739680356154452862938111167862738806491877e-44
1.8785,1.5823030659943427574148577609602819349761944252553e-44
1.879,1.5894596502405754199831122909112442417759388259139e-44
1.8795,1.5966097650789957840153307037306092305278346174949e-44
1.88,1.6037535463755839356621768510110214531047183402506e-44
1.8805,1.6108911275510645644025959777441789355727745019156e-44
1.881,1.6180226396400417546097048559496906584952448675773e-44
1.8815,1.6251482113483619569581085630650016280268441800989e-44
1.882,1.6322679691087081042784205709560706931413542400731e-44
1.8825,1.6393820371345390841722360097681703438742432766926e-44
1.883,1.6464905374723973794580347928577761611354491334371e-44
1.8835,1.6535935900526936324649059467977106532572622662274e-44
1.884,1.6606913127389606921411232407919725986876485111699e-44
1.8845,1.6677838213756810931851023565183267361597455245405e-44
1.885,1.6748712298347012915107704313090788430654773798061e-44
1.8855,1.6819536500603321144212521630047283580504062430235e-44
1.886,1.6890311921131194697123700233331219416738671935089e-44
1.8865,1.6961039642123808181196161931136658715630497663677e-44
1.887,1.7031720727775129435313663719274879824479362206153e-44
1.8875,1.7102356224681628099420592704565732578729862214314e-44
1.888,1.717294716223238547482782541634197302962677260036e-44
1.8885,1.7243494552988490880221546783797212687630051270694e-44
1.889,1.7313999393051715570898330870715831171659367164886e-44
1.8895,1.7384462662423318535813535715045594898108255304262e-44
1.89,1.7454885325352696746374040645491104388413677814308e-44
1.8905,1.7525268330676707026466524073300572506629199689348e-44
1.891,1.7595612612149597328519357034638163763591330364502e-44
1.8915,1.7665919088764348783695466856489836666588317838924e-44
1.892,1.7736188665065093089625940822344550046770559357324e-44
1.8925,1.7806422231451383958932048997875528897578956057306e-44
1.893,1.7876620664474216048277673133163657071578604060037e-44
1.8935,1.7946784827124548446427563495813631278626173927091e-44
1.894,1.8016915569113957267263857461220609452397253786453e-44
1.8945,1.808701372714815545535569469776916882904781747097e-44
1.895,1.815708012519323612690211609408030129939244257702e-44
1.8955,1.8227115574735359321609459184634971654352694913424e-44
1.896,1.8297120875033473217070268331755882793935122540157e-44
1.8965,1.8367096813365773723929734061731277479109624985742e-44
1.897,1.8437044165269727638374846228674405162440497930448e-44
1.8975,1.8506963694776347854202427795116858436227918756575e-44
1.898,1.8576856154638283537983632678518430232703000039616e-44
1.8985,1.8646722286552400295423362352553422635622310668831e-44
1.899,1.871656282137664925213930357186240103333349514265e-44
1.8995,1.8786378479341886995761841062771373284615317319198e-44
1.9,1.8856169970258185534524046104227093893791567471247e-44
1.9005,1.8925937993716282799947688876730777734073457872054e-44
1.901,1.8995683239283950403315256058616258056798553662575e-44
1.9015,1.9065406386697918037256582620378340439680245384826e-44
1.902,1.9135108106050873563861310795047627478811824308597e-44
1.9025,1.9204789057974168468860001687993118477893441838699e-44
1.903,1.9274449893815986526351442128227522120820256471643e-44
1.9035,1.934409125581559584479329212828796293931150192781e-44
1.904,1.9413713777273186235331744770166438540054159178368e-44
1.9045,1.9483318082715903785906588336726141300394506856537e-44
1.905,1.9552904788059824405866350888443847182815525636718e-44
1.9055,1.962247450076847008348753798274018598274232406201e-44
1.906,1.9692027820007355204098099408393177297664727916777e-44
1.9065,1.9761565336795159576850329114624953649049037681319e-44
1.907,1.9831087634151256180495861602304822472059535264208e-44
1.9075,1.9900595287240183289619496640654877756246014890092e-44
1.908,1.9970088863512535827992640980030439533266762873303e-44
1.9085,2.0039568922842859518812649703548070328166949191077e-44
1.909,2.0109036017664264035517875412643633102715064825793e-44
1.9095,2.0178490693100332714804224551184129034946446478639e-44
1.91,2.0247933487093792929039781888851311406774566049395e-44
1.9105,2.0317364930532519433709841247699922589545192579037e-44
1.911,2.0386785547372576723483002122982227220492753535228e-44
1.9115,2.0456195854758867537028757292358893799652272484695e-44
1.912,2.0525596363142842328795540665879658905801029490076e-44
1.9125,2.0594987576397832317607146587294303098922785865341e-44
1.913,2.0664369991931703354808091993730352965017157187633e-44
1.9135,2.0733744100797388757678711833366487320972950667596e-44
1.914,2.0803110387800747885111948094011890275435578899523e-44
1.9145,2.0872469331606304678695492736376055345459818345203e-44
1.915,2.094182140484055578674681074366224800836129950848e-44
1.9155,2.1011167074193398640417331550797698676208460316465e-44
1.916,2.1080506800517119262112716286542109709142859975629e-44
1.9165,2.1149841038923486770364188343032586293866482424524e-44
1.917,2.1219170238878637561347738974433591946275314470758e-44
1.9175,2.1288494844296292802412275069888079023775898449881e-44
1.918,2.1357815293628742904505134139990623804567228306337e-44
1.9185,2.1427132019956139646066422262825426141817777097102e-44
1.919,2.1496445451073773130486952216364273394521987034703e-44
1.9195,2.156575600957787137480974549261886815801959298701e-44
1.92,2.1635064112949350831935217615840367642019804956411e-44
1.9205,2.170437017363605306009937256002331261413913150927e-44
1.921,2.1773674599133139638341607656239241754506232503306e-44
1.9215,2.1842977792062178060482208116961645079569567613388e-44
1.922,2.1912280150248342181074882913863722789766433450968e-44
1.9225,2.198158206679625768749422689414733970204873585733e-44
1.923,2.2050883930164160223546100620114048324267581556405e-44
1.9235,2.2120186124236894500134300844692927883870930866058e-44
1.924,2.2189489028397173778567091303341568402921329377298e-44
1.9245,2.2258793017595626084171110387471854889585728740326e-44
1.925,2.232809846241929082408065818792370404278800608854e-44
1.9255,2.2397405729159090327511627696127393267344065037532e-44
1.926,2.2466715179875691967112967592144666456806062386711e-44
1.9265,2.2536027172464283644154112242976208325777115072359e-44
1.927,2.2605342060717922807112488798106971235876648778851e-44
1.9275,2.2674660194389980209368536789822653969626666335059e-44
1.928,2.2743981919255090730866390634268990347602777111577e-44
1.9285,2.2813307577169130943767416705644986525333053347503e-44
1.929,2.2882637506127880471351160570556799152758756328246e-44
1.9295,2.2951972040324885473836527145863145999318486768234e-44
1.93,2.3021311510207933588196712043794043388683089338623e-44
1.9305,2.309065624253465731218392511014962358835826799545e-44
1.931,2.3160006560426920091783139116344615615434041419874e-44
1.9315,2.3229362783424500959534342272278956046033787956897e-44
1.932,2.3298725227537484340295025119561512075186158626005e-44
1.9325,2.336809420529786968702694801629948881099323644407e-44
1.933,2.3437470025810052700307986422353575675272419406835e-44
1.9335,2.3506852994800691831618217872705335446826047800343e-44
1.934,2.3576243414667364222330503711079857563993473780472e-44
1.9345,2.3645641584526523731965314552492159589896688303845e-44
1.935,2.3715047800260410549343441577308124105137366134923e-44
1.9355,2.3784462354563424237762184442252882705500717772043e-44
1.936,2.3853885536987362112013638474731636225925502282762e-44
1.9365,2.3923317633986033872869657288194701003326458801666e-44
1.937,2.3992758928958899944624392401769355138836411540123e-44
1.9375,2.4062209702294243781551437729926813592184029156481e-44
1.938,2.413167023141127796731798606296797618653172034917e-44
1.9385,2.4201140790801662700347308631858246108749538940782e-44
1.939,2.4270621652070298219792202173051736394899626238431e-44
1.9395,2.4340113083975252165009243745682555722656135270057e-44
1.94,2.4409615352467299642047558947011620570170726725467e-44
1.9405,2.4479128720728473443542968709059127080319404128983e-44
1.941,2.4548653449210132326718577319635453987075912026907e-44
1.9415,2.4618189795670190820215402177303407669536958745583e-44
1.942,2.4687738015210018073308338471755882296361228000879e-44
1.9425,2.4757298360310401436897552882914889462403567844708e-44
1.943,2.4826871080867081664356980685432766465211020227612e-44
1.9435,2.4896456424225501665966180063926273899231297190188e-44
1.944,2.4966054635215275414074564329341802078317210551079e-44
1.9445,2.5035665956183771040307562330343455440949755871403e-44
1.945,2.5105290627029314166554819243335569208735358913358e-44
1.9455,2.5174928885233651981543047468518073101621800854748e-44
1.946,2.5244580965894183904272150175273212594931603965243e-44
1.9465,2.5314247101755351320668296600143275854126937093583e-44
1.947,2.5383927523239691741269787184594283805758088732997e-44
1.9475,2.5453622458478196569659406868772380482833572229499e-44
1.948,2.5523332133340477710912701979676036591948934598319e-44
1.9485,2.5593056771464134030967659512956562524944463074032e-44
1.949,2.5662796594283822457597582783262294262510283332092e-44
1.9495,2.5732551821059671677251750868716775815455171502513e-44
1.95,2.5802322668905543174279967310647537779748072702489e-44
1.9505,2.5872109352816529215751588990019415252609817819444e-44
1.951,2.5941912085696192138501541177390791267323359970822e-44
1.9515,2.6011731078383181732415403093722556606102365544655e-44
1.952,2.6081566539677735100149178309500091487700983229007e-44
1.9525,2.6151418676367447246394047078545461027943593153318e-44
1.953,2.6221287693252816430305729685331163519943145651213e-44
1.9535,2.6291173793172199980115718471357236353900637341822e-44
1.954,2.6361077177026684688948043922657744616469939143936e-44
1.9545,2.643099804380425874365691577922907736743615971591e-44
1.955,2.6500936590603788997712409015736541740393558139612e-44
1.9555,2.657089301265843824876962616440729764762028504225e-44
1.956,2.6640867503359026473968717341063107940730041175785e-44
1.9565,2.6710860254276721714679671893116772446460947599785e-44
1.957,2.6780871455185564290171863028175671950042428481547e-44
1.9575,2.6850901294084458011545931057371874568396580942953e-44
1.958,2.6920949957219132269396493726151213868599301977613e-44
1.9585,2.6991017629103459461413982977667713331022222158275e-44
1.959,2.7061104492540631390605835213434691523674003071759e-44
1.9595,2.7131210728643827358695176724973234360424950137752e-44
1.96,2.7201336516856877827189163256719133930084527934342e-44
1.9605,2.7271482034974306915692587014228717161349343427675e-44
1.961,2.7341647459161257394734164922015538670177952902475e-44
1.9615,2.7411832963972929987670475673764186470211307126366e-44
1.962,2.7482038722374040924865046233669481230892954925889e-44
1.9625,2.7552264905757679846991439947544957945873261785461e-44
1.963,2.7622511683964071810158679074967876559580096552061e-44
1.9635,2.7692779225298874329207136990103934447689829748291e-44
1.964,2.7763067696551513538601251984598217134382841501909e-44
1.9645,2.7833377263012940414634153606520012838955355728022e-44
1.965,2.7903708088493310970088056874089291958729286835734e-44
1.9655,2.7974060335339220506874965069915316867059636112547e-44
1.966,2.8044434164450996202345272632159873100185778087686e-44
